Frequency (Hz)	Level (dB)
15.625000	-79.689346
31.250000	-76.635246
46.875000	-74.068100
62.500000	-70.543907
78.125000	-67.833206
93.750000	-67.126175
109.375000	-66.265541
125.000000	-65.839523
140.625000	-66.400520
156.250000	-66.244286
171.875000	-65.899162
187.500000	-65.335121
203.125000	-64.635406
218.750000	-63.698574
234.375000	-62.604046
250.000000	-61.196640
265.625000	-59.385826
281.250000	-57.116440
296.875000	-54.146206
312.500000	-50.496841
328.125000	-47.513130
343.750000	-47.267014
359.375000	-49.696613
375.000000	-52.791027
390.625000	-55.254627
406.250000	-57.077995
421.875000	-58.390224
437.500000	-59.292252
453.125000	-59.912617
468.750000	-60.287785
484.375000	-60.456799
500.000000	-60.415291
515.625000	-60.205723
531.250000	-59.842377
546.875000	-59.397007
562.500000	-58.835682
578.125000	-58.103298
593.750000	-57.164379
609.375000	-55.928383
625.000000	-54.256908
640.625000	-51.996902
656.250000	-49.043053
671.875000	-46.030186
687.500000	-44.859348
703.125000	-46.370583
718.750000	-49.099884
734.375000	-51.264416
750.000000	-52.640984
765.625000	-53.669422
781.250000	-54.625854
796.875000	-55.464890
812.500000	-56.086086
828.125000	-56.455982
843.750000	-56.605957
859.375000	-56.517574
875.000000	-56.185814
890.625000	-55.623268
906.250000	-54.809319
921.875000	-53.703827
937.500000	-52.308880
953.125000	-50.701027
968.750000	-49.173477
984.375000	-48.105492
1000.000000	-47.450512
1015.625000	-46.741821
1031.250000	-46.016674
1046.875000	-45.996929
1062.500000	-47.012394
1078.125000	-48.599060
1093.750000	-50.147949
1109.375000	-51.398914
1125.000000	-52.330246
1140.625000	-52.965874
1156.250000	-53.343342
1171.875000	-53.494766
1187.500000	-53.448296
1203.125000	-53.271450
1218.750000	-53.012867
1234.375000	-52.698582
1250.000000	-52.300770
1265.625000	-51.792023
1281.250000	-51.206356
1296.875000	-50.644772
1312.500000	-50.140255
1328.125000	-49.606499
1343.750000	-48.870308
1359.375000	-47.806961
1375.000000	-46.458553
1390.625000	-45.134048
1406.250000	-44.421398
1421.875000	-44.719078
1437.500000	-45.720634
1453.125000	-46.674099
1468.750000	-47.228283
1484.375000	-47.661179
1500.000000	-48.156857
1515.625000	-48.538357
1531.250000	-48.641670
1546.875000	-48.519657
1562.500000	-48.364803
1578.125000	-48.283638
1593.750000	-48.221855
1609.375000	-48.060230
1625.000000	-47.715931
1640.625000	-47.161469
1656.250000	-46.368229
1671.875000	-45.302521
1687.500000	-43.914810
1703.125000	-42.122513
1718.750000	-39.826374
1734.375000	-37.019848
1750.000000	-34.383064
1765.625000	-33.419727
1781.250000	-34.708469
1796.875000	-37.127125
1812.500000	-39.352402
1828.125000	-41.046200
1843.750000	-42.285915
1859.375000	-43.172619
1875.000000	-43.774281
1890.625000	-44.137245
1906.250000	-44.288383
1921.875000	-44.238823
1937.500000	-43.998474
1953.125000	-43.569553
1968.750000	-42.942085
1984.375000	-42.106735
2000.000000	-41.044960
2015.625000	-39.713921
2031.250000	-38.055084
2046.875000	-36.046272
2062.500000	-33.886726
2078.125000	-32.269005
2093.750000	-32.034122
2109.375000	-33.249260
2125.000000	-35.130264
2140.625000	-36.933723
2156.250000	-38.416553
2171.875000	-39.575005
2187.500000	-40.456478
2203.125000	-41.106457
2218.750000	-41.554649
2234.375000	-41.822235
2250.000000	-41.925880
2265.625000	-41.873177
2281.250000	-41.669487
2296.875000	-41.317459
2312.500000	-40.811939
2328.125000	-40.146591
2343.750000	-39.320408
2359.375000	-38.347771
2375.000000	-37.270855
2390.625000	-36.188988
2406.250000	-35.293926
2421.875000	-34.836765
2437.500000	-34.976902
2453.125000	-35.660011
2468.750000	-36.662197
2484.375000	-37.750969
2500.000000	-38.783604
2515.625000	-39.696865
2531.250000	-40.466866
2546.875000	-41.092709
2562.500000	-41.582161
2578.125000	-41.948433
2593.750000	-42.199455
2609.375000	-42.344791
2625.000000	-42.388737
2640.625000	-42.336575
2656.250000	-42.193737
2671.875000	-41.971157
2687.500000	-41.678299
2703.125000	-41.308769
2718.750000	-40.829105
2734.375000	-40.199890
2750.000000	-39.432758
2765.625000	-38.622116
2781.250000	-37.922234
2796.875000	-37.493755
2812.500000	-37.446907
2828.125000	-37.793446
2843.750000	-38.440891
2859.375000	-39.243225
2875.000000	-40.067223
2890.625000	-40.832401
2906.250000	-41.497910
2921.875000	-42.049263
2937.500000	-42.485779
2953.125000	-42.813396
2968.750000	-43.036861
2984.375000	-43.156147
3000.000000	-43.168549
3015.625000	-43.074863
3031.250000	-42.872250
3046.875000	-42.561169
3062.500000	-42.133648
3078.125000	-41.590027
3093.750000	-40.931366
3109.375000	-40.165821
3125.000000	-39.325493
3140.625000	-38.480076
3156.250000	-37.748955
3171.875000	-37.291351
3187.500000	-37.238483
3203.125000	-37.611996
3218.750000	-38.311653
3234.375000	-39.176453
3250.000000	-40.061272
3265.625000	-40.881306
3281.250000	-41.594322
3296.875000	-42.178783
3312.500000	-42.626022
3328.125000	-42.933727
3343.750000	-43.103954
3359.375000	-43.132961
3375.000000	-43.017311
3390.625000	-42.752476
3406.250000	-42.328053
3421.875000	-41.730694
3437.500000	-40.946339
3453.125000	-39.959064
3468.750000	-38.758850
3484.375000	-37.368687
3500.000000	-35.928699
3515.625000	-34.766125
3531.250000	-34.316067
3546.875000	-34.790073
3562.500000	-35.961292
3578.125000	-37.385311
3593.750000	-38.738106
3609.375000	-39.891590
3625.000000	-40.824959
3640.625000	-41.550182
3656.250000	-42.084915
3671.875000	-42.440121
3687.500000	-42.628334
3703.125000	-42.657959
3718.750000	-42.527199
3734.375000	-42.231152
3750.000000	-41.760910
3765.625000	-41.107414
3781.250000	-40.250526
3796.875000	-39.155956
3812.500000	-37.803745
3828.125000	-36.198128
3843.750000	-34.465195
3859.375000	-33.008854
3875.000000	-32.453102
3890.625000	-33.091896
3906.250000	-34.559143
3921.875000	-36.235630
3937.500000	-37.751842
3953.125000	-39.008919
3968.750000	-40.014374
3984.375000	-40.790398
4000.000000	-41.357479
4015.625000	-41.744396
4031.250000	-41.963318
4046.875000	-42.018623
4062.500000	-41.913902
4078.125000	-41.649780
4093.750000	-41.222927
4109.375000	-40.618839
4125.000000	-39.819916
4140.625000	-38.808144
4156.250000	-37.559860
4171.875000	-36.070950
4187.500000	-34.437298
4203.125000	-32.989887
4218.750000	-32.287907
4234.375000	-32.701305
4250.000000	-34.019299
4265.625000	-35.682301
4281.250000	-37.271198
4296.875000	-38.632854
4312.500000	-39.754719
4328.125000	-40.659805
4343.750000	-41.368950
4359.375000	-41.899845
4375.000000	-42.268227
4390.625000	-42.484447
4406.250000	-42.551483
4421.875000	-42.469223
4437.500000	-42.233017
4453.125000	-41.833992
4468.750000	-41.256542
4484.375000	-40.477570
4500.000000	-39.465878
4515.625000	-38.201988
4531.250000	-36.697216
4546.875000	-35.114990
4562.500000	-33.923340
4578.125000	-33.732685
4593.750000	-34.724022
4609.375000	-36.442204
4625.000000	-38.288151
4640.625000	-39.949951
4656.250000	-41.350487
4671.875000	-42.500275
4687.500000	-43.427555
4703.125000	-44.157940
4718.750000	-44.709236
4734.375000	-45.093159
4750.000000	-45.315784
4765.625000	-45.378124
4781.250000	-45.279716
4796.875000	-45.007549
4812.500000	-44.546783
4828.125000	-43.873768
4843.750000	-42.954266
4859.375000	-41.739857
4875.000000	-40.191578
4890.625000	-38.367489
4906.250000	-36.653294
4921.875000	-35.870415
4937.500000	-36.590996
4953.125000	-38.455326
4968.750000	-40.613331
4984.375000	-42.551395
5000.000000	-44.161335
5015.625000	-45.471115
5031.250000	-46.521999
5046.875000	-47.348289
5062.500000	-47.972919
5078.125000	-48.414261
5093.750000	-48.681828
5109.375000	-48.782116
5125.000000	-48.712624
5140.625000	-48.463497
5156.250000	-48.026390
5171.875000	-47.373402
5187.500000	-46.471252
5203.125000	-45.262615
5218.750000	-43.685982
5234.375000	-41.723431
5250.000000	-39.653599
5265.625000	-38.394848
5281.250000	-38.846794
5296.875000	-40.793915
5312.500000	-43.180191
5328.125000	-45.298916
5343.750000	-47.022305
5359.375000	-48.393246
5375.000000	-49.483280
5390.625000	-50.334602
5406.250000	-50.977417
5421.875000	-51.432693
5437.500000	-51.717041
5453.125000	-51.834396
5468.750000	-51.775749
5484.375000	-51.544117
5500.000000	-51.118916
5515.625000	-50.477573
5531.250000	-49.585789
5546.875000	-48.392319
5562.500000	-46.825886
5578.125000	-44.830421
5593.750000	-42.594913
5609.375000	-40.977673
5625.000000	-41.070129
5640.625000	-42.886578
5656.250000	-45.339664
5671.875000	-47.555267
5687.500000	-49.347595
5703.125000	-50.777222
5718.750000	-51.916283
5734.375000	-52.811478
5750.000000	-53.491783
5765.625000	-53.982384
5781.250000	-54.290287
5796.875000	-54.428219
5812.500000	-54.392948
5828.125000	-54.180447
5843.750000	-53.776520
5859.375000	-53.161484
5875.000000	-52.299313
5890.625000	-51.141548
5906.250000	-49.601841
5921.875000	-47.601940
5937.500000	-45.224709
5953.125000	-43.267563
5968.750000	-43.040363
5984.375000	-44.800648
6000.000000	-47.422482
6015.625000	-49.822094
6031.250000	-51.747932
6046.875000	-53.268574
6062.500000	-54.467892
6078.125000	-55.402138
6093.750000	-56.120750
6109.375000	-56.645042
6125.000000	-56.998306
6140.625000	-57.182240
6156.250000	-57.202225
6171.875000	-57.051167
6187.500000	-56.722576
6203.125000	-56.198212
6218.750000	-55.426842
6234.375000	-54.367275
6250.000000	-52.944019
6265.625000	-51.066231
6281.250000	-48.745861
6296.875000	-46.615467
6312.500000	-46.033901
6328.125000	-47.578503
6343.750000	-50.264580
6359.375000	-52.847557
6375.000000	-54.953499
6390.625000	-56.633331
6406.250000	-57.972420
6421.875000	-59.044189
6437.500000	-59.885319
6453.125000	-60.537933
6468.750000	-61.012775
6484.375000	-61.315372
6500.000000	-61.450409
6515.625000	-61.426128
6531.250000	-61.220428
6546.875000	-60.805073
6562.500000	-60.168068
6578.125000	-59.258621
6593.750000	-58.001545
6609.375000	-56.334476
6625.000000	-54.297623
6640.625000	-52.459606
6656.250000	-51.999165
6671.875000	-53.474609
6687.500000	-56.079872
6703.125000	-58.693806
6718.750000	-60.892502
6734.375000	-62.696362
6750.000000	-64.175842
6765.625000	-65.412842
6781.250000	-66.420105
6796.875000	-67.232315
6812.500000	-67.869003
6828.125000	-68.359741
6843.750000	-68.669182
6859.375000	-68.841240
6875.000000	-68.833557
6890.625000	-68.628922
6906.250000	-68.210907
6921.875000	-67.570435
6937.500000	-66.646706
6953.125000	-65.386215
6968.750000	-63.894970
6984.375000	-62.636887
7000.000000	-62.447277
7015.625000	-63.761810
7031.250000	-66.095261
7046.875000	-68.589935
7062.500000	-70.820641
7078.125000	-72.769798
7093.750000	-74.424065
7109.375000	-75.891769
7125.000000	-77.125320
7140.625000	-78.120865
7156.250000	-78.994881
7171.875000	-79.743568
7187.500000	-80.317368
7203.125000	-80.779793
7218.750000	-81.072098
7234.375000	-81.122459
7250.000000	-81.088440
7265.625000	-80.906113
7281.250000	-80.535942
7296.875000	-79.960251
7312.500000	-79.265976
7328.125000	-78.815277
7343.750000	-78.899597
7359.375000	-79.882729
7375.000000	-81.605377
7390.625000	-83.711128
7406.250000	-85.854324
7421.875000	-87.550919
7437.500000	-89.011070
7453.125000	-90.178802
7468.750000	-91.362953
7484.375000	-92.407616
7500.000000	-93.261978
7515.625000	-93.878365
7531.250000	-94.333076
7546.875000	-94.809494
7562.500000	-95.436745
7578.125000	-96.207886
7593.750000	-97.026138
7609.375000	-97.795410
7625.000000	-98.691887
7640.625000	-99.724678
7656.250000	-100.832184
7671.875000	-102.097702
7687.500000	-103.523781
7703.125000	-105.341331
7718.750000	-107.244667
7734.375000	-109.503700
7750.000000	-112.161575
7765.625000	-115.245224
7781.250000	-118.592239
7796.875000	-122.925636
7812.500000	-127.656761
7828.125000	-132.460464
7843.750000	-137.630875
7859.375000	-143.063629
7875.000000	-149.183655
7890.625000	-155.310745
7906.250000	-160.427200
7921.875000	-163.799713
7937.500000	-164.690521
7953.125000	-164.876343
7968.750000	-165.077332
7984.375000	-165.093597
